x,y,z,phi,theta,psi
0,0,0,0,0,0
-5.3854e-13,2.6253e-14,3.4985e-06,-7.6467e-12,-1.5685e-10,-3.0807e-12
-1.0491e-12,3.5548e-14,1.3814e-05,-1.4318e-11,-3.3939e-10,-6.0944e-12
-2.8111e-12,1.081e-13,3.0848e-05,-3.853e-11,-8.8792e-10,-1.6295e-11
-4.6004e-12,1.6382e-13,5.4594e-05,-6.2122e-11,-1.4839e-09,-2.684e-11
-7.5052e-12,2.7292e-13,8.5039e-05,-1.0093e-10,-2.4156e-09,-4.3923e-11
-1.0494e-11,3.6823e-13,0.00012217,-1.3981e-10,-3.4179e-09,-6.1846e-11
-1.4465e-11,5.078e-13,0.00016599,-1.919e-10,-4.7304e-09,-8.5759e-11
-1.8547e-11,6.3531e-13,0.00021647,-2.4456e-10,-6.1324e-09,-1.1092e-10
-2.3476e-11,7.9867e-13,0.00027361,-3.0867e-10,-7.8232e-09,-1.416e-10
-2.8515e-11,9.506e-13,0.0003374,-3.7369e-10,-9.6189e-09,-1.7387e-10
-3.4265e-11,1.1306e-12,0.00040783,-4.4866e-10,-1.1685e-08,-2.1126e-10
-4.0097e-11,1.2989e-12,0.00048488,-5.2475e-10,-1.3869e-08,-2.505e-10
-4.65e-11,1.4879e-12,0.00056855,-6.0946e-10,-1.6308e-08,-2.9455e-10
-5.2935e-11,1.6643e-12,0.00065883,-6.9543e-10,-1.8874e-08,-3.4065e-10
-5.9795e-11,1.8546e-12,0.0007557,-7.8885e-10,-2.1683e-08,-3.9127e-10
-6.6616e-11,2.0307e-12,0.00085914,-8.8357e-10,-2.4627e-08,-4.4412e-10
-7.371e-11,2.2144e-12,0.00096917,-9.8472e-10,-2.7802e-08,-5.0125e-10
-8.0673e-11,2.3818e-12,0.0010857,-1.0872e-09,-3.112e-08,-5.6075e-10
-8.7749e-11,2.5508e-12,0.0012089,-1.1952e-09,-3.4659e-08,-6.2431e-10
-9.4584e-11,2.7012e-12,0.0013385,-1.3044e-09,-3.8345e-08,-6.9036e-10
-1.0136e-10,2.8475e-12,0.0014747,-1.4183e-09,-4.2245e-08,-7.6029e-10
-1.0778e-10,2.9728e-12,0.0016174,-1.5335e-09,-4.6296e-08,-8.3279e-10
-1.1395e-10,3.0885e-12,0.0017666,-1.6526e-09,-5.0553e-08,-9.0902e-10
-1.1962e-10,3.1806e-12,0.0019223,-1.7728e-09,-5.4965e-08,-9.8788e-10
-1.2487e-10,3.2582e-12,0.0020845,-1.8965e-09,-5.9577e-08,-1.0703e-09
-1.2945e-10,3.3094e-12,0.0022532,-2.021e-09,-6.4346e-08,-1.1555e-09
-1.3341e-10,3.3415e-12,0.0024283,-2.1484e-09,-6.931e-08,-1.2441e-09
-1.3653e-10,3.3454e-12,0.0026098,-2.2766e-09,-7.4432e-08,-1.3354e-09
-1.3882e-10,3.3282e-12,0.0027978,-2.4071e-09,-7.9745e-08,-1.4301e-09
-1.4008e-10,3.2818e-12,0.0029921,-2.5383e-09,-8.5218e-08,-1.5276e-09
-1.4031e-10,3.211e-12,0.0031929,-2.6714e-09,-9.0877e-08,-1.6283e-09
-1.393e-10,3.1087e-12,0.0034001,-2.805e-09,-9.6698e-08,-1.7318e-09
-1.3703e-10,2.9789e-12,0.0036137,-2.9402e-09,-1.027e-07,-1.8384e-09
-1.333e-10,2.8157e-12,0.0038336,-3.0757e-09,-1.0886e-07,-1.9479e-09
-1.2808e-10,2.6224e-12,0.0040599,-3.2124e-09,-1.1521e-07,-2.0604e-09
-1.2118e-10,2.3938e-12,0.0042925,-3.3493e-09,-1.2171e-07,-2.1758e-09
-1.1253e-10,2.1329e-12,0.0045315,-3.487e-09,-1.284e-07,-2.2942e-09
-1.0196e-10,1.8355e-12,0.0047768,-3.6249e-09,-1.3524e-07,-2.4153e-09
-8.9396e-11,1.5039e-12,0.0050283,-3.7633e-09,-1.4226e-07,-2.5395e-09
-7.4654e-11,1.1349e-12,0.0052862,-3.9016e-09,-1.4944e-07,-2.6664e-09
-5.7646e-11,7.303e-13,0.0055503,-4.0404e-09,-1.5679e-07,-2.7962e-09
-3.8199e-11,2.8766e-13,0.0058208,-4.1788e-09,-1.6431e-07,-2.9288e-09
-1.6209e-11,-1.9122e-13,0.0060974,-4.3175e-09,-1.7199e-07,-3.0643e-09
8.4957e-12,-7.083e-13,0.0063803,-4.4558e-09,-1.7984e-07,-3.2026e-09
3.603e-11,-1.2619e-12,0.0066694,-4.5941e-09,-1.8785e-07,-3.3437e-09
6.6566e-11,-1.8532e-12,0.0069648,-4.7319e-09,-1.9602e-07,-3.4875e-09
1.0023e-10,-2.4808e-12,0.0072663,-4.8694e-09,-2.0436e-07,-3.6341e-09
1.3719e-10,-3.1452e-12,0.007574,-5.0065e-09,-2.1287e-07,-3.7834e-09
1.7758e-10,-3.8448e-12,0.0078879,-5.1431e-09,-2.2153e-07,-3.9355e-09
2.2159e-10,-4.5799e-12,0.0082079,-5.2791e-09,-2.3036e-07,-4.0903e-09
2.6934e-10,-5.3485e-12,0.0085341,-5.4146e-09,-2.3935e-07,-4.2478e-09
3.2102e-10,-6.1505e-12,0.0088664,-5.5493e-09,-2.485e-07,-4.408e-09
3.7677e-10,-6.9838e-12,0.0092048,-5.6834e-09,-2.5781e-07,-4.5708e-09
4.3679e-10,-7.8478e-12,0.0095493,-5.8167e-09,-2.6728e-07,-4.7364e-09
5.0121e-10,-8.7401e-12,0.0098999,-5.9492e-09,-2.7691e-07,-4.9046e-09
5.7023e-10,-9.6596e-12,0.010257,-6.0808e-09,-2.867e-07,-5.0754e-09
6.4401e-10,-1.0604e-11,0.010619,-6.2116e-09,-2.9665e-07,-5.2489e-09
7.2273e-10,-1.1571e-11,0.010988,-6.3414e-09,-3.0676e-07,-5.425e-09
8.0656e-10,-1.2558e-11,0.011363,-6.4703e-09,-3.1703e-07,-5.6037e-09
8.957e-10,-1.3564e-11,0.011744,-6.5982e-09,-3.2746e-07,-5.785e-09
9.9032e-10,-1.4585e-11,0.012131,-6.7251e-09,-3.3804e-07,-5.9689e-09
1.0906e-09,-1.5617e-11,0.012523,-6.8509e-09,-3.4878e-07,-6.1553e-09
1.1967e-09,-1.6659e-11,0.012922,-6.9757e-09,-3.5968e-07,-6.3444e-09
1.3089e-09,-1.7707e-11,0.013327,-7.0993e-09,-3.7073e-07,-6.536e-09
1.4274e-09,-1.8756e-11,0.013738,-7.2219e-09,-3.8194e-07,-6.7301e-09
1.5522e-09,-1.9804e-11,0.014154,-7.3433e-09,-3.9331e-07,-6.9268e-09
1.6837e-09,-2.0846e-11,0.014577,-7.4635e-09,-4.0483e-07,-7.126e-09
1.822e-09,-2.1878e-11,0.015005,-7.5826e-09,-4.1651e-07,-7.3277e-09
1.9674e-09,-2.2896e-11,0.015439,-7.7004e-09,-4.2834e-07,-7.5319e-09
2.12e-09,-2.3893e-11,0.01588,-7.8171e-09,-4.4033e-07,-7.7386e-09
2.28e-09,-2.4867e-11,0.016326,-7.9325e-09,-4.5248e-07,-7.9478e-09
2.4477e-09,-2.5811e-11,0.016777,-8.0467e-09,-4.6477e-07,-8.1594e-09
2.6232e-09,-2.6719e-11,0.017235,-8.1597e-09,-4.7723e-07,-8.3736e-09
2.8068e-09,-2.7586e-11,0.017699,-8.2715e-09,-4.8983e-07,-8.5902e-09
2.9987e-09,-2.8407e-11,0.018168,-8.3819e-09,-5.0259e-07,-8.8092e-09
3.1991e-09,-2.9173e-11,0.018643,-8.4911e-09,-5.1551e-07,-9.0307e-09
3.4082e-09,-2.988e-11,0.019124,-8.5991e-09,-5.2858e-07,-9.2546e-09
3.6263e-09,-3.0519e-11,0.01961,-8.7058e-09,-5.418e-07,-9.481e-09
3.8535e-09,-3.1085e-11,0.020102,-8.8112e-09,-5.5517e-07,-9.7097e-09
4.0902e-09,-3.1568e-11,0.0206,-8.9153e-09,-5.687e-07,-9.9409e-09
4.3364e-09,-3.1963e-11,0.021104,-9.0182e-09,-5.8238e-07,-1.0175e-08
4.5925e-09,-3.2259e-11,0.021614,-9.1198e-09,-5.9621e-07,-1.041e-08
4.8587e-09,-3.2449e-11,0.022129,-9.2201e-09,-6.102e-07,-1.0649e-08
5.1352e-09,-3.2525e-11,0.022649,-9.3192e-09,-6.2434e-07,-1.089e-08
5.4223e-09,-3.2477e-11,0.023176,-9.417e-09,-6.3863e-07,-1.1133e-08
5.7201e-09,-3.2295e-11,0.023708,-9.5135e-09,-6.5307e-07,-1.1378e-08
6.029e-09,-3.1971e-11,0.024245,-9.6088e-09,-6.6767e-07,-1.1626e-08
6.3491e-09,-3.1494e-11,0.024788,-9.7028e-09,-6.8241e-07,-1.1876e-08
6.6808e-09,-3.0853e-11,0.025337,-9.7956e-09,-6.9731e-07,-1.2129e-08
7.0242e-09,-3.0038e-11,0.025891,-9.8871e-09,-7.1237e-07,-1.2384e-08
7.3796e-09,-2.9038e-11,0.026451,-9.9774e-09,-7.2757e-07,-1.2641e-08
7.7473e-09,-2.7841e-11,0.027016,-1.0066e-08,-7.4292e-07,-1.2901e-08
8.1275e-09,-2.6436e-11,0.027587,-1.0154e-08,-7.5843e-07,-1.3162e-08
8.5205e-09,-2.481e-11,0.028163,-1.0241e-08,-7.7409e-07,-1.3427e-08
8.9265e-09,-2.2951e-11,0.028745,-1.0326e-08,-7.899e-07,-1.3693e-08
9.3458e-09,-2.0846e-11,0.029332,-1.0411e-08,-8.0586e-07,-1.3962e-08
9.7786e-09,-1.8481e-11,0.029925,-1.0494e-08,-8.2197e-07,-1.4233e-08
1.0225e-08,-1.5842e-11,0.030523,-1.0576e-08,-8.3824e-07,-1.4507e-08
1.0686e-08,-1.2917e-11,0.031127,-1.0656e-08,-8.5466e-07,-1.4782e-08
1.1161e-08,-9.6887e-12,0.031736,-1.0736e-08,-8.7122e-07,-1.506e-08
1.1651e-08,-6.1439e-12,0.03235,-1.0815e-08,-8.8794e-07,-1.5341e-08
1.2155e-08,-2.2667e-12,0.03297,-1.0892e-08,-9.0481e-07,-1.5623e-08
1.2675e-08,1.9587e-12,0.033595,-1.0968e-08,-9.2184e-07,-1.5908e-08
1.321e-08,6.5485e-12,0.034225,-1.1043e-08,-9.3901e-07,-1.6195e-08
1.376e-08,1.152e-11,0.034861,-1.1117e-08,-9.5634e-07,-1.6485e-08
1.4327e-08,1.6889e-11,0.035502,-1.119e-08,-9.7381e-07,-1.6776e-08
1.491e-08,2.2674e-11,0.036148,-1.1262e-08,-9.9144e-07,-1.707e-08
1.5509e-08,2.8893e-11,0.036799,-1.1333e-08,-1.0092e-06,-1.7366e-08
1.6126e-08,3.5564e-11,0.037456,-1.1403e-08,-1.0272e-06,-1.7665e-08
1.6759e-08,4.2707e-11,0.038118,-1.1472e-08,-1.0452e-06,-1.7965e-08
1.741e-08,5.034e-11,0.038785,-1.154e-08,-1.0635e-06,-1.8268e-08
1.8078e-08,5.8485e-11,0.039457,-1.1606e-08,-1.0819e-06,-1.8573e-08
1.8764e-08,6.716e-11,0.040135,-1.1672e-08,-1.1004e-06,-1.8881e-08
1.9469e-08,7.6388e-11,0.040818,-1.1737e-08,-1.1191e-06,-1.919e-08
2.0192e-08,8.6189e-11,0.041506,-1.1801e-08,-1.1379e-06,-1.9502e-08
2.0934e-08,9.6585e-11,0.042198,-1.1864e-08,-1.1569e-06,-1.9816e-08
2.1695e-08,1.076e-10,0.042897,-1.1926e-08,-1.1761e-06,-2.0132e-08
2.2475e-08,1.1926e-10,0.0436,-1.1987e-08,-1.1954e-06,-2.0451e-08
2.3275e-08,1.3157e-10,0.044308,-1.2048e-08,-1.2148e-06,-2.0772e-08
2.4096e-08,1.4458e-10,0.045021,-1.2107e-08,-1.2344e-06,-2.1095e-08
2.4936e-08,1.583e-10,0.045739,-1.2166e-08,-1.2542e-06,-2.142e-08
2.5797e-08,1.7276e-10,0.046463,-1.2223e-08,-1.2741e-06,-2.1747e-08
2.6679e-08,1.8799e-10,0.047191,-1.228e-08,-1.2942e-06,-2.2076e-08
2.7583e-08,2.04e-10,0.047924,-1.2336e-08,-1.3144e-06,-2.2408e-08
2.8508e-08,2.2083e-10,0.048663,-1.2391e-08,-1.3348e-06,-2.2742e-08
2.9455e-08,2.385e-10,0.049406,-1.2446e-08,-1.3553e-06,-2.3078e-08
3.0424e-08,2.5705e-10,0.050154,-1.2499e-08,-1.376e-06,-2.3417e-08
3.1415e-08,2.765e-10,0.050907,-1.2552e-08,-1.3968e-06,-2.3757e-08
3.2429e-08,2.9688e-10,0.051665,-1.2604e-08,-1.4178e-06,-2.41e-08
3.3467e-08,3.1821e-10,0.052428,-1.2656e-08,-1.4389e-06,-2.4445e-08
3.4528e-08,3.4054e-10,0.053196,-1.2706e-08,-1.4602e-06,-2.4792e-08
3.5612e-08,3.6389e-10,0.053969,-1.2756e-08,-1.4817e-06,-2.5141e-08
3.6721e-08,3.883e-10,0.054746,-1.2806e-08,-1.5033e-06,-2.5492e-08
3.7854e-08,4.1378e-10,0.055528,-1.2854e-08,-1.525e-06,-2.5846e-08
3.9012e-08,4.4039e-10,0.056315,-1.2902e-08,-1.5469e-06,-2.6202e-08
4.0196e-08,4.6815e-10,0.057107,-1.2949e-08,-1.569e-06,-2.656e-08
4.1404e-08,4.9709e-10,0.057904,-1.2996e-08,-1.5912e-06,-2.692e-08
4.2638e-08,5.2726e-10,0.058705,-1.3042e-08,-1.6136e-06,-2.7282e-08
4.3899e-08,5.5868e-10,0.059511,-1.3087e-08,-1.6361e-06,-2.7647e-08
4.5185e-08,5.9139e-10,0.060322,-1.3132e-08,-1.6588e-06,-2.8013e-08
4.6499e-08,6.2544e-10,0.061138,-1.3176e-08,-1.6817e-06,-2.8382e-08
4.784e-08,6.6085e-10,0.061958,-1.322e-08,-1.7047e-06,-2.8753e-08
4.9208e-08,6.9767e-10,0.062783,-1.3263e-08,-1.7278e-06,-2.9126e-08
5.0603e-08,7.3593e-10,0.063612,-1.3305e-08,-1.7511e-06,-2.9502e-08
5.2027e-08,7.7568e-10,0.064446,-1.3347e-08,-1.7746e-06,-2.9879e-08
5.348e-08,8.1695e-10,0.065285,-1.3389e-08,-1.7982e-06,-3.0259e-08
5.4961e-08,8.5979e-10,0.066128,-1.343e-08,-1.822e-06,-3.0641e-08
5.6471e-08,9.0424e-10,0.066976,-1.347e-08,-1.846e-06,-3.1025e-08
5.8011e-08,9.5034e-10,0.067828,-1.351e-08,-1.8701e-06,-3.1411e-08
5.9581e-08,9.9813e-10,0.068685,-1.3549e-08,-1.8943e-06,-3.1799e-08
6.1181e-08,1.0477e-09,0.069546,-1.3588e-08,-1.9187e-06,-3.219e-08
6.2811e-08,1.099e-09,0.070412,-1.3627e-08,-1.9433e-06,-3.2582e-08
6.4473e-08,1.1521e-09,0.071283,-1.3665e-08,-1.968e-06,-3.2977e-08
6.6165e-08,1.2071e-09,0.072158,-1.3703e-08,-1.9929e-06,-3.3374e-08
6.789e-08,1.2641e-09,0.073037,-1.374e-08,-2.018e-06,-3.3773e-08
6.9646e-08,1.323e-09,0.073921,-1.3777e-08,-2.0432e-06,-3.4174e-08
7.1435e-08,1.384e-09,0.074809,-1.3813e-08,-2.0685e-06,-3.4577e-08
7.3256e-08,1.447e-09,0.075701,-1.3849e-08,-2.094e-06,-3.4983e-08
7.5111e-08,1.5121e-09,0.076598,-1.3885e-08,-2.1197e-06,-3.5391e-08
7.6999e-08,1.5794e-09,0.0775,-1.392e-08,-2.1456e-06,-3.58e-08
7.892e-08,1.6489e-09,0.078405,-1.3955e-08,-2.1716e-06,-3.6212e-08
8.0876e-08,1.7207e-09,0.079315,-1.3989e-08,-2.1977e-06,-3.6626e-08
8.2867e-08,1.7949e-09,0.080229,-1.4023e-08,-2.2241e-06,-3.7043e-08
8.4892e-08,1.8714e-09,0.081148,-1.4057e-08,-2.2505e-06,-3.7461e-08
8.6953e-08,1.9504e-09,0.082071,-1.4091e-08,-2.2772e-06,-3.7882e-08
8.9049e-08,2.0318e-09,0.082998,-1.4124e-08,-2.304e-06,-3.8304e-08
9.1182e-08,2.1159e-09,0.083929,-1.4157e-08,-2.331e-06,-3.8729e-08
9.335e-08,2.2025e-09,0.084864,-1.4189e-08,-2.3581e-06,-3.9156e-08
9.5556e-08,2.2918e-09,0.085804,-1.4222e-08,-2.3854e-06,-3.9585e-08
9.7799e-08,2.3839e-09,0.086748,-1.4254e-08,-2.4128e-06,-4.0017e-08
1.0008e-07,2.4787e-09,0.087696,-1.4285e-08,-2.4404e-06,-4.045e-08
1.024e-07,2.5764e-09,0.088648,-1.4317e-08,-2.4682e-06,-4.0886e-08
1.0475e-07,2.6771e-09,0.089604,-1.4348e-08,-2.4962e-06,-4.1323e-08
1.0715e-07,2.7807e-09,0.090565,-1.4379e-08,-2.5243e-06,-4.1763e-08
1.0958e-07,2.8874e-09,0.091529,-1.441e-08,-2.5525e-06,-4.2205e-08
1.1206e-07,2.9971e-09,0.092498,-1.444e-08,-2.581e-06,-4.2649e-08
1.1457e-07,3.1101e-09,0.09347,-1.447e-08,-2.6096e-06,-4.3095e-08
1.1713e-07,3.2263e-09,0.094447,-1.4501e-08,-2.6383e-06,-4.3544e-08
1.1972e-07,3.3459e-09,0.095427,-1.453e-08,-2.6672e-06,-4.3994e-08
1.2236e-07,3.4688e-09,0.096412,-1.456e-08,-2.6963e-06,-4.4447e-08
1.2503e-07,3.5952e-09,0.097401,-1.4589e-08,-2.7256e-06,-4.4902e-08
1.2775e-07,3.7251e-09,0.098393,-1.4619e-08,-2.755e-06,-4.5359e-08
1.3051e-07,3.8586e-09,0.09939,-1.4648e-08,-2.7846e-06,-4.5818e-08
1.3332e-07,3.9958e-09,0.10039,-1.4677e-08,-2.8143e-06,-4.6279e-08
1.3616e-07,4.1368e-09,0.10139,-1.4705e-08,-2.8442e-06,-4.6742e-08
1.3906e-07,4.2815e-09,0.1024,-1.4734e-08,-2.8743e-06,-4.7208e-08
1.4199e-07,4.4302e-09,0.10341,-1.4762e-08,-2.9046e-06,-4.7676e-08
1.4497e-07,4.5829e-09,0.10443,-1.479e-08,-2.935e-06,-4.8145e-08
1.4799e-07,4.7397e-09,0.10545,-1.4818e-08,-2.9656e-06,-4.8617e-08
1.5106e-07,4.9005e-09,0.10647,-1.4846e-08,-2.9963e-06,-4.9091e-08
1.5417e-07,5.0656e-09,0.1075,-1.4874e-08,-3.0272e-06,-4.9567e-08
1.5733e-07,5.2351e-09,0.10853,-1.4902e-08,-3.0583e-06,-5.0046e-08
1.6054e-07,5.4089e-09,0.10957,-1.4929e-08,-3.0896e-06,-5.0526e-08
1.6379e-07,5.5871e-09,0.11061,-1.4956e-08,-3.121e-06,-5.1009e-08
1.6709e-07,5.77e-09,0.11165,-1.4984e-08,-3.1526e-06,-5.1493e-08
1.7044e-07,5.9575e-09,0.1127,-1.5011e-08,-3.1843e-06,-5.198e-08
1.7383e-07,6.1497e-09,0.11375,-1.5038e-08,-3.2163e-06,-5.2469e-08
1.7728e-07,6.3467e-09,0.1148,-1.5065e-08,-3.2483e-06,-5.296e-08
1.8077e-07,6.5487e-09,0.11586,-1.5091e-08,-3.2806e-06,-5.3454e-08
1.8431e-07,6.7557e-09,0.11692,-1.5118e-08,-3.313e-06,-5.3949e-08
1.879e-07,6.9677e-09,0.11798,-1.5145e-08,-3.3456e-06,-5.4447e-08
1.9154e-07,7.185e-09,0.11905,-1.5171e-08,-3.3784e-06,-5.4946e-08
1.9523e-07,7.4075e-09,0.12012,-1.5198e-08,-3.4114e-06,-5.5448e-08
1.9897e-07,7.6354e-09,0.1212,-1.5224e-08,-3.4445e-06,-5.5952e-08
2.0277e-07,7.8688e-09,0.12227,-1.525e-08,-3.4778e-06,-5.6458e-08
2.0661e-07,8.1078e-09,0.12336,-1.5276e-08,-3.5112e-06,-5.6966e-08
2.1051e-07,8.3525e-09,0.12444,-1.5302e-08,-3.5449e-06,-5.7476e-08
2.1446e-07,8.6029e-09,0.12553,-1.5328e-08,-3.5787e-06,-5.7989e-08
2.1846e-07,8.8592e-09,0.12663,-1.5354e-08,-3.6126e-06,-5.8503e-08
2.2252e-07,9.1215e-09,0.12772,-1.538e-08,-3.6468e-06,-5.902e-08
2.2663e-07,9.3899e-09,0.12882,-1.5406e-08,-3.6811e-06,-5.9539e-08
2.3079e-07,9.6645e-09,0.12992,-1.5432e-08,-3.7156e-06,-6.0059e-08
2.3501e-07,9.9453e-09,0.13103,-1.5457e-08,-3.7502e-06,-6.0582e-08
2.3928e-07,1.0233e-08,0.13214,-1.5483e-08,-3.7851e-06,-6.1108e-08
2.4361e-07,1.0526e-08,0.13325,-1.5508e-08,-3.8201e-06,-6.1635e-08
2.48e-07,1.0827e-08,0.13437,-1.5534e-08,-3.8553e-06,-6.2164e-08
2.5244e-07,1.1134e-08,0.13549,-1.5559e-08,-3.8906e-06,-6.2696e-08
2.5694e-07,1.1448e-08,0.13661,-1.5585e-08,-3.9262e-06,-6.3229e-08
2.6149e-07,1.1769e-08,0.13774,-1.561e-08,-3.9619e-06,-6.3765e-08
2.661e-07,1.2097e-08,0.13887,-1.5635e-08,-3.9977e-06,-6.4303e-08
2.7078e-07,1.2432e-08,0.14,-1.5661e-08,-4.0338e-06,-6.4843e-08
2.7551e-07,1.2775e-08,0.14114,-1.5686e-08,-4.07e-06,-6.5385e-08
2.8029e-07,1.3125e-08,0.14228,-1.5711e-08,-4.1064e-06,-6.5929e-08
2.8514e-07,1.3482e-08,0.14342,-1.5736e-08,-4.143e-06,-6.6476e-08
2.9005e-07,1.3848e-08,0.14457,-1.5761e-08,-4.1798e-06,-6.7024e-08
2.9502e-07,1.4221e-08,0.14572,-1.5786e-08,-4.2167e-06,-6.7575e-08
3.0005e-07,1.4602e-08,0.14687,-1.5811e-08,-4.2538e-06,-6.8127e-08
3.0514e-07,1.4991e-08,0.14803,-1.5836e-08,-4.2911e-06,-6.8682e-08
3.1029e-07,1.5388e-08,0.14919,-1.5861e-08,-4.3286e-06,-6.9239e-08
3.1551e-07,1.5793e-08,0.15035,-1.5886e-08,-4.3662e-06,-6.9798e-08
3.2078e-07,1.6207e-08,0.15151,-1.5911e-08,-4.404e-06,-7.0359e-08
3.2612e-07,1.663e-08,0.15268,-1.5936e-08,-4.442e-06,-7.0922e-08
3.3153e-07,1.7061e-08,0.15385,-1.5961e-08,-4.4802e-06,-7.1488e-08
3.3699e-07,1.7501e-08,0.15503,-1.5986e-08,-4.5185e-06,-7.2055e-08
3.4252e-07,1.795e-08,0.1562,-1.601e-08,-4.557e-06,-7.2625e-08
3.4812e-07,1.8408e-08,0.15738,-1.6035e-08,-4.5958e-06,-7.3196e-08
3.5378e-07,1.8876e-08,0.15857,-1.606e-08,-4.6346e-06,-7.377e-08
3.5951e-07,1.9352e-08,0.15975,-1.6085e-08,-4.6737e-06,-7.4346e-08
3.653e-07,1.9839e-08,0.16094,-1.6109e-08,-4.7129e-06,-7.4924e-08
3.7116e-07,2.0335e-08,0.16213,-1.6134e-08,-4.7524e-06,-7.5504e-08
3.7709e-07,2.084e-08,0.16333,-1.6159e-08,-4.792e-06,-7.6086e-08
3.8308e-07,2.1356e-08,0.16453,-1.6183e-08,-4.8317e-06,-7.667e-08
3.8915e-07,2.1882e-08,0.16573,-1.6208e-08,-4.8717e-06,-7.7256e-08
3.9528e-07,2.2418e-08,0.16693,-1.6232e-08,-4.9118e-06,-7.7845e-08
4.0148e-07,2.2965e-08,0.16814,-1.6257e-08,-4.9522e-06,-7.8435e-08
4.0774e-07,2.3522e-08,0.16935,-1.6281e-08,-4.9927e-06,-7.9028e-08
4.1408e-07,2.409e-08,0.17056,-1.6306e-08,-5.0333e-06,-7.9623e-08
4.2049e-07,2.4668e-08,0.17177,-1.633e-08,-5.0742e-06,-8.0219e-08
4.2697e-07,2.5258e-08,0.17299,-1.6355e-08,-5.1152e-06,-8.0818e-08
4.3352e-07,2.5859e-08,0.17421,-1.6379e-08,-5.1565e-06,-8.1419e-08
4.4014e-07,2.6471e-08,0.17544,-1.6403e-08,-5.1979e-06,-8.2022e-08
4.4684e-07,2.7095e-08,0.17666,-1.6428e-08,-5.2395e-06,-8.2627e-08
4.536e-07,2.773e-08,0.17789,-1.6452e-08,-5.2812e-06,-8.3234e-08
4.6044e-07,2.8377e-08,0.17912,-1.6476e-08,-5.3232e-06,-8.3843e-08
4.6735e-07,2.9037e-08,0.18036,-1.6501e-08,-5.3653e-06,-8.4455e-08
4.7434e-07,2.9708e-08,0.18159,-1.6525e-08,-5.4076e-06,-8.5068e-08
4.814e-07,3.0392e-08,0.18283,-1.6549e-08,-5.4501e-06,-8.5684e-08
4.8854e-07,3.1088e-08,0.18408,-1.6573e-08,-5.4928e-06,-8.6301e-08
4.9575e-07,3.1797e-08,0.18532,-1.6598e-08,-5.5357e-06,-8.6921e-08
5.0303e-07,3.2518e-08,0.18657,-1.6622e-08,-5.5787e-06,-8.7542e-08
5.104e-07,3.3253e-08,0.18782,-1.6646e-08,-5.6219e-06,-8.8166e-08
5.1784e-07,3.4001e-08,0.18907,-1.667e-08,-5.6653e-06,-8.8792e-08
5.2535e-07,3.4762e-08,0.19032,-1.6694e-08,-5.7089e-06,-8.9419e-08
5.3295e-07,3.5537e-08,0.19158,-1.6718e-08,-5.7527e-06,-9.0049e-08
5.4062e-07,3.6325e-08,0.19284,-1.6742e-08,-5.7967e-06,-9.0681e-08
5.4837e-07,3.7127e-08,0.1941,-1.6766e-08,-5.8408e-06,-9.1315e-08
5.562e-07,3.7944e-08,0.19537,-1.679e-08,-5.8851e-06,-9.1951e-08
5.641e-07,3.8774e-08,0.19664,-1.6814e-08,-5.9297e-06,-9.2589e-08
5.7209e-07,3.9619e-08,0.19791,-1.6838e-08,-5.9744e-06,-9.3229e-08
5.8016e-07,4.0479e-08,0.19918,-1.6862e-08,-6.0192e-06,-9.3871e-08
5.8831e-07,4.1354e-08,0.20046,-1.6885e-08,-6.0643e-06,-9.4516e-08
5.9654e-07,4.2243e-08,0.20173,-1.6909e-08,-6.1096e-06,-9.5162e-08
6.0485e-07,4.3148e-08,0.20301,-1.6933e-08,-6.155e-06,-9.581e-08
6.1325e-07,4.4068e-08,0.20429,-1.6956e-08,-6.2006e-06,-9.646e-08
6.2172e-07,4.5004e-08,0.20558,-1.698e-08,-6.2464e-06,-9.7112e-08
6.3028e-07,4.5956e-08,0.20687,-1.7004e-08,-6.2924e-06,-9.7767e-08
6.3893e-07,4.6923e-08,0.20815,-1.7027e-08,-6.3386e-06,-9.8423e-08
6.4765e-07,4.7907e-08,0.20945,-1.7051e-08,-6.385e-06,-9.9081e-08
6.5646e-07,4.8907e-08,0.21074,-1.7074e-08,-6.4315e-06,-9.9742e-08
6.6536e-07,4.9924e-08,0.21204,-1.7098e-08,-6.4783e-06,-1.004e-07
6.7434e-07,5.0958e-08,0.21333,-1.7121e-08,-6.5252e-06,-1.0107e-07
6.8341e-07,5.2008e-08,0.21463,-1.7145e-08,-6.5723e-06,-1.0173e-07
6.9256e-07,5.3076e-08,0.21594,-1.7168e-08,-6.6196e-06,-1.024e-07
7.018e-07,5.4161e-08,0.21724,-1.7191e-08,-6.6671e-06,-1.0307e-07
7.1113e-07,5.5264e-08,0.21855,-1.7214e-08,-6.7148e-06,-1.0375e-07
7.2055e-07,5.6385e-08,0.21986,-1.7238e-08,-6.7626e-06,-1.0442e-07
7.3005e-07,5.7523e-08,0.22117,-1.7261e-08,-6.8107e-06,-1.051e-07
7.3964e-07,5.8681e-08,0.22248,-1.7284e-08,-6.8589e-06,-1.0578e-07
7.4933e-07,5.9856e-08,0.2238,-1.7307e-08,-6.9073e-06,-1.0646e-07
7.591e-07,6.105e-08,0.22512,-1.733e-08,-6.9559e-06,-1.0714e-07
7.6896e-07,6.2263e-08,0.22644,-1.7353e-08,-7.0047e-06,-1.0782e-07
7.7891e-07,6.3496e-08,0.22776,-1.7376e-08,-7.0537e-06,-1.0851e-07
7.8895e-07,6.4748e-08,0.22908,-1.7398e-08,-7.1029e-06,-1.092e-07
7.9908e-07,6.6019e-08,0.23041,-1.7421e-08,-7.1522e-06,-1.0989e-07
8.0931e-07,6.731e-08,0.23174,-1.7444e-08,-7.2018e-06,-1.1058e-07
8.1963e-07,6.8621e-08,0.23307,-1.7466e-08,-7.2515e-06,-1.1127e-07
8.3004e-07,6.9953e-08,0.2344,-1.7489e-08,-7.3014e-06,-1.1197e-07
8.4054e-07,7.1305e-08,0.23573,-1.7512e-08,-7.3515e-06,-1.1267e-07
8.5114e-07,7.2678e-08,0.23707,-1.7534e-08,-7.4018e-06,-1.1337e-07
8.6183e-07,7.4072e-08,0.23841,-1.7556e-08,-7.4523e-06,-1.1407e-07
