x,y,z,phi,theta,psi
0,0,0,0,0,0
8.6917e-09,-1.5494e-06,-5.4411e-09,0.000513,3.3666e-06,-3.0887e-06
8.6944e-08,-5.9357e-06,-9.7998e-09,0.0019725,2.6996e-05,-1.1509e-05
1.6346e-07,-1.2814e-05,-2.6019e-08,0.0042795,5.192e-05,-2.5065e-05
2.9715e-07,-2.1945e-05,-4.073e-08,0.0073529,9.3466e-05,-4.2865e-05
4.2853e-07,-3.3099e-05,-6.5205e-08,0.011117,0.00013584,-6.4806e-05
6.0661e-07,-4.6077e-05,-8.841e-08,0.015505,0.00019179,-9.0119e-05
7.8193e-07,-6.0691e-05,-1.1981e-07,0.020454,0.00024819,-0.00011873
9.9529e-07,-7.6774e-05,-1.5032e-07,0.025909,0.00031566,-0.00014997
1.2055e-06,-9.4171e-05,-1.879e-07,0.031817,0.00038327,-0.0001838
1.4466e-06,-0.00011274,-2.251e-07,0.038132,0.00045987,-0.00021965
1.6844e-06,-0.00013237,-2.6863e-07,0.044813,0.00053638,-0.00025747
1.947e-06,-0.00015292,-3.1239e-07,0.051819,0.00062015,-0.00029681
2.2062e-06,-0.0001743,-3.6204e-07,0.059116,0.00070363,-0.00033761
2.4852e-06,-0.00019642,-4.126e-07,0.066673,0.00079295,-0.00037949
2.7607e-06,-0.00021917,-4.6887e-07,0.074459,0.00088184,-0.00042243
3.052e-06,-0.0002425,-5.2679e-07,0.082449,0.00097538,-0.00046609
3.3396e-06,-0.00026632,-5.9071e-07,0.090618,0.0010684,-0.00051044
3.6397e-06,-0.00029057,-6.5776e-07,0.098945,0.001165,-0.0005552
3.936e-06,-0.00031519,-7.3184e-07,0.10741,0.0012611,-0.00060035
4.2421e-06,-0.00034013,-8.1066e-07,0.116,0.00136,-0.00064565
4.5444e-06,-0.00036534,-8.9752e-07,0.12468,0.0014582,-0.00069108
4.8542e-06,-0.00039077,-9.9056e-07,0.13346,0.0015586,-0.00073643
5.1602e-06,-0.00041638,-1.0926e-06,0.14232,0.0016582,-0.00078171
5.4718e-06,-0.00044214,-1.202e-06,0.15123,0.0017596,-0.00082674
5.7796e-06,-0.00046802,-1.3213e-06,0.1602,0.0018601,-0.00087152
6.0914e-06,-0.00049398,-1.4492e-06,0.16921,0.0019618,-0.00091591
6.3995e-06,-0.00052,-1.5876e-06,0.17825,0.0020627,-0.00095992
6.7104e-06,-0.00054605,-1.7355e-06,0.18732,0.0021644,-0.0010034
7.0176e-06,-0.0005721,-1.8947e-06,0.1964,0.0022653,-0.0010464
7.3264e-06,-0.00059815,-2.0642e-06,0.20549,0.0023667,-0.0010888
7.6317e-06,-0.00062417,-2.2455e-06,0.21459,0.0024673,-0.0011307
7.9378e-06,-0.00065015,-2.438e-06,0.22368,0.0025681,-0.0011718
8.2403e-06,-0.00067606,-2.6427e-06,0.23276,0.002668,-0.0012123
8.5429e-06,-0.0007019,-2.8592e-06,0.24184,0.0027681,-0.0012521
8.842e-06,-0.00072765,-3.0884e-06,0.25089,0.0028672,-0.0012912
9.1408e-06,-0.00075331,-3.3299e-06,0.25993,0.0029663,-0.0013295
9.436e-06,-0.00077886,-3.5844e-06,0.26895,0.0030645,-0.0013671
9.7304e-06,-0.00080429,-3.8517e-06,0.27793,0.0031625,-0.0014039
1.0021e-05,-0.0008296,-4.1323e-06,0.28689,0.0032596,-0.0014399
1.0311e-05,-0.00085478,-4.4261e-06,0.29582,0.0033563,-0.0014751
1.0598e-05,-0.00087982,-4.7336e-06,0.30471,0.0034522,-0.0015095
1.0883e-05,-0.00090472,-5.0545e-06,0.31357,0.0035477,-0.001543
1.1164e-05,-0.00092947,-5.3893e-06,0.32238,0.0036424,-0.0015758
1.1444e-05,-0.00095407,-5.7378e-06,0.33116,0.0037365,-0.0016077
1.1721e-05,-0.00097851,-6.1005e-06,0.3399,0.0038298,-0.0016389
1.1996e-05,-0.0010028,-6.477e-06,0.3486,0.0039225,-0.0016691
1.2267e-05,-0.0010269,-6.8679e-06,0.35725,0.0040144,-0.0016986
1.2537e-05,-0.0010509,-7.2729e-06,0.36586,0.0041057,-0.0017273
1.2803e-05,-0.0010747,-7.6923e-06,0.37442,0.0041962,-0.0017551
1.3068e-05,-0.0010983,-8.1261e-06,0.38294,0.0042861,-0.0017821
1.3329e-05,-0.0011217,-8.5743e-06,0.39141,0.0043752,-0.0018083
1.3588e-05,-0.001145,-9.0371e-06,0.39983,0.0044636,-0.0018336
1.3844e-05,-0.0011681,-9.5144e-06,0.4082,0.0045512,-0.0018582
1.4098e-05,-0.001191,-1.0006e-05,0.41653,0.0046381,-0.001882
1.4349e-05,-0.0012137,-1.0513e-05,0.42481,0.0047243,-0.001905
1.4598e-05,-0.0012363,-1.1034e-05,0.43304,0.0048098,-0.0019271
1.4844e-05,-0.0012587,-1.157e-05,0.44122,0.0048945,-0.0019485
1.5088e-05,-0.0012809,-1.2121e-05,0.44935,0.0049785,-0.0019691
1.5329e-05,-0.001303,-1.2687e-05,0.45743,0.0050618,-0.001989
1.5567e-05,-0.0013248,-1.3267e-05,0.46547,0.0051444,-0.0020081
1.5803e-05,-0.0013465,-1.3862e-05,0.47345,0.0052262,-0.0020264
1.6036e-05,-0.001368,-1.4473e-05,0.48138,0.0053073,-0.002044
1.6267e-05,-0.0013893,-1.5098e-05,0.48927,0.0053877,-0.0020608
1.6496e-05,-0.0014105,-1.5739e-05,0.4971,0.0054675,-0.0020769
1.6722e-05,-0.0014315,-1.6394e-05,0.50489,0.0055465,-0.0020922
1.6946e-05,-0.0014523,-1.7066e-05,0.51262,0.0056248,-0.0021068
1.7167e-05,-0.0014729,-1.7753e-05,0.52031,0.0057024,-0.0021207
1.7386e-05,-0.0014934,-1.8455e-05,0.52795,0.0057794,-0.0021339
1.7603e-05,-0.0015137,-1.9174e-05,0.53553,0.0058557,-0.0021463
1.7817e-05,-0.0015338,-1.9908e-05,0.54307,0.0059313,-0.0021581
1.8029e-05,-0.0015537,-2.0658e-05,0.55056,0.0060062,-0.0021691
1.8239e-05,-0.0015735,-2.1424e-05,0.55801,0.0060804,-0.0021795
1.8447e-05,-0.0015931,-2.2207e-05,0.5654,0.006154,-0.0021891
1.8652e-05,-0.0016125,-2.3005e-05,0.57275,0.006227,-0.0021981
1.8855e-05,-0.0016318,-2.382e-05,0.58005,0.0062993,-0.0022063
1.9056e-05,-0.0016509,-2.4651e-05,0.5873,0.0063709,-0.0022139
1.9255e-05,-0.0016698,-2.5499e-05,0.5945,0.0064419,-0.0022209
1.9452e-05,-0.0016886,-2.6363e-05,0.60166,0.0065123,-0.0022271
1.9647e-05,-0.0017072,-2.7244e-05,0.60877,0.0065821,-0.0022327
1.9839e-05,-0.0017257,-2.8141e-05,0.61583,0.0066512,-0.0022377
2.003e-05,-0.0017439,-2.9055e-05,0.62285,0.0067198,-0.002242
2.0218e-05,-0.0017621,-2.9985e-05,0.62982,0.0067877,-0.0022457
2.0405e-05,-0.00178,-3.0932e-05,0.63675,0.006855,-0.0022487
2.0589e-05,-0.0017978,-3.1896e-05,0.64363,0.0069217,-0.0022511
2.0772e-05,-0.0018155,-3.2877e-05,0.65046,0.0069879,-0.0022529
2.0953e-05,-0.001833,-3.3875e-05,0.65725,0.0070534,-0.002254
2.1132e-05,-0.0018503,-3.4889e-05,0.66399,0.0071184,-0.0022546
2.1309e-05,-0.0018675,-3.5921e-05,0.67069,0.0071828,-0.0022545
2.1484e-05,-0.0018845,-3.6969e-05,0.67735,0.0072466,-0.0022539
2.1657e-05,-0.0019014,-3.8034e-05,0.68396,0.0073099,-0.0022526
2.1828e-05,-0.0019181,-3.9117e-05,0.69053,0.0073726,-0.0022508
2.1998e-05,-0.0019347,-4.0216e-05,0.69705,0.0074347,-0.0022484
2.2166e-05,-0.0019511,-4.1332e-05,0.70353,0.0074963,-0.0022454
2.2332e-05,-0.0019674,-4.2465e-05,0.70997,0.0075574,-0.0022418
2.2497e-05,-0.0019835,-4.3615e-05,0.71636,0.0076179,-0.0022377
2.2659e-05,-0.0019995,-4.4782e-05,0.72272,0.0076779,-0.0022329
2.282e-05,-0.0020154,-4.5966e-05,0.72903,0.0077374,-0.0022277
2.298e-05,-0.0020311,-4.7167e-05,0.73529,0.0077963,-0.0022219
2.3138e-05,-0.0020466,-4.8385e-05,0.74152,0.0078548,-0.0022155
2.3294e-05,-0.002062,-4.962e-05,0.7477,0.0079127,-0.0022086
2.3449e-05,-0.0020773,-5.0872e-05,0.75385,0.0079701,-0.0022012
2.3602e-05,-0.0020924,-5.2141e-05,0.75995,0.008027,-0.0021933
2.3753e-05,-0.0021074,-5.3427e-05,0.76601,0.0080834,-0.0021848
2.3903e-05,-0.0021223,-5.473e-05,0.77203,0.0081394,-0.0021758
2.4052e-05,-0.002137,-5.6049e-05,0.77801,0.0081948,-0.0021663
2.4198e-05,-0.0021516,-5.7386e-05,0.78395,0.0082498,-0.0021563
2.4344e-05,-0.002166,-5.8739e-05,0.78986,0.0083043,-0.0021457
2.4488e-05,-0.0021803,-6.011e-05,0.79572,0.0083583,-0.0021347
2.4631e-05,-0.0021945,-6.1497e-05,0.80154,0.0084118,-0.0021232
2.4772e-05,-0.0022086,-6.29e-05,0.80732,0.0084649,-0.0021112
2.4912e-05,-0.0022225,-6.4321e-05,0.81307,0.0085176,-0.0020987
2.505e-05,-0.0022363,-6.5758e-05,0.81877,0.0085697,-0.0020858
2.5187e-05,-0.0022499,-6.7212e-05,0.82444,0.0086215,-0.0020723
2.5323e-05,-0.0022635,-6.8682e-05,0.83007,0.0086728,-0.0020584
2.5457e-05,-0.0022769,-7.0169e-05,0.83566,0.0087236,-0.0020441
2.5591e-05,-0.0022901,-7.1673e-05,0.84122,0.008774,-0.0020292
2.5722e-05,-0.0023033,-7.3193e-05,0.84674,0.008824,-0.0020139
2.5853e-05,-0.0023163,-7.473e-05,0.85222,0.0088736,-0.0019982
2.5982e-05,-0.0023292,-7.6283e-05,0.85766,0.0089227,-0.001982
2.6111e-05,-0.002342,-7.7852e-05,0.86307,0.0089715,-0.0019654
2.6237e-05,-0.0023547,-7.9438e-05,0.86844,0.0090198,-0.0019484
2.6363e-05,-0.0023672,-8.104e-05,0.87377,0.0090677,-0.0019309
2.6488e-05,-0.0023796,-8.2659e-05,0.87907,0.0091152,-0.001913
2.6611e-05,-0.0023919,-8.4293e-05,0.88434,0.0091623,-0.0018947
2.6733e-05,-0.0024041,-8.5944e-05,0.88956,0.009209,-0.0018759
2.6854e-05,-0.0024161,-8.761e-05,0.89476,0.0092553,-0.0018568
2.6974e-05,-0.0024281,-8.9293e-05,0.89991,0.0093012,-0.0018372
2.7093e-05,-0.0024399,-9.0992e-05,0.90504,0.0093467,-0.0018172
2.7211e-05,-0.0024516,-9.2706e-05,0.91012,0.0093919,-0.0017969
2.7328e-05,-0.0024632,-9.4437e-05,0.91518,0.0094367,-0.0017761
2.7443e-05,-0.0024747,-9.6183e-05,0.9202,0.0094811,-0.0017549
2.7558e-05,-0.0024861,-9.7945e-05,0.92518,0.0095251,-0.0017334
2.7671e-05,-0.0024973,-9.9722e-05,0.93014,0.0095688,-0.0017115
2.7784e-05,-0.0025085,-0.00010152,0.93505,0.0096121,-0.0016891
2.7896e-05,-0.0025195,-0.00010332,0.93994,0.0096551,-0.0016665
2.8006e-05,-0.0025304,-0.00010515,0.94479,0.0096977,-0.0016434
2.8116e-05,-0.0025413,-0.00010699,0.94961,0.0097399,-0.00162
2.8225e-05,-0.002552,-0.00010884,0.9544,0.0097818,-0.0015962
2.8332e-05,-0.0025626,-0.00011071,0.95915,0.0098234,-0.001572
2.8439e-05,-0.0025731,-0.0001126,0.96388,0.0098646,-0.0015475
2.8545e-05,-0.0025835,-0.0001145,0.96857,0.0099055,-0.0015227
2.865e-05,-0.0025938,-0.00011641,0.97323,0.0099461,-0.0014975
2.8754e-05,-0.002604,-0.00011834,0.97785,0.0099863,-0.0014719
2.8858e-05,-0.002614,-0.00012029,0.98245,0.010026,-0.001446
2.896e-05,-0.002624,-0.00012225,0.98701,0.010066,-0.0014198
2.9062e-05,-0.0026339,-0.00012423,0.99155,0.010105,-0.0013933
2.9162e-05,-0.0026437,-0.00012622,0.99605,0.010144,-0.0013664
2.9262e-05,-0.0026534,-0.00012822,1.0005,0.010183,-0.0013392
2.9361e-05,-0.0026629,-0.00013024,1.005,0.010221,-0.0013116
2.946e-05,-0.0026724,-0.00013227,1.0094,0.010259,-0.0012838
2.9557e-05,-0.0026818,-0.00013432,1.0138,0.010297,-0.0012556
2.9654e-05,-0.0026911,-0.00013638,1.0181,0.010334,-0.0012271
2.975e-05,-0.0027003,-0.00013846,1.0224,0.010371,-0.0011983
2.9845e-05,-0.0027094,-0.00014055,1.0267,0.010408,-0.0011692
2.994e-05,-0.0027184,-0.00014265,1.031,0.010445,-0.0011398
3.0033e-05,-0.0027273,-0.00014477,1.0352,0.010481,-0.0011102
3.0127e-05,-0.0027361,-0.00014691,1.0394,0.010517,-0.0010802
3.0219e-05,-0.0027448,-0.00014905,1.0436,0.010552,-0.0010499
3.0311e-05,-0.0027534,-0.00015121,1.0478,0.010588,-0.0010193
3.0402e-05,-0.002762,-0.00015339,1.0519,0.010623,-0.00098846
3.0492e-05,-0.0027704,-0.00015557,1.056,0.010658,-0.00095733
3.0582e-05,-0.0027788,-0.00015778,1.06,0.010692,-0.00092591
3.0671e-05,-0.002787,-0.00015999,1.0641,0.010727,-0.00089422
3.0759e-05,-0.0027952,-0.00016222,1.0681,0.010761,-0.00086226
3.0847e-05,-0.0028033,-0.00016446,1.0721,0.010795,-0.00083003
3.0934e-05,-0.0028113,-0.00016672,1.076,0.010828,-0.00079753
3.1021e-05,-0.0028192,-0.00016898,1.08,0.010862,-0.00076477
3.1107e-05,-0.002827,-0.00017126,1.0839,0.010895,-0.00073175
3.1192e-05,-0.0028348,-0.00017356,1.0877,0.010927,-0.00069847
3.1277e-05,-0.0028424,-0.00017586,1.0916,0.01096,-0.00066494
3.1361e-05,-0.00285,-0.00017818,1.0954,0.010992,-0.00063115
3.1445e-05,-0.0028575,-0.00018052,1.0992,0.011024,-0.00059712
3.1528e-05,-0.0028649,-0.00018286,1.103,0.011056,-0.00056284
3.1611e-05,-0.0028722,-0.00018522,1.1067,0.011088,-0.00052831
3.1693e-05,-0.0028795,-0.00018759,1.1104,0.011119,-0.00049355
3.1774e-05,-0.0028866,-0.00018997,1.1141,0.01115,-0.00045855
3.1856e-05,-0.0028937,-0.00019237,1.1178,0.011181,-0.00042332
3.1936e-05,-0.0029007,-0.00019477,1.1214,0.011212,-0.00038785
3.2016e-05,-0.0029076,-0.00019719,1.1251,0.011242,-0.00035215
3.2096e-05,-0.0029145,-0.00019963,1.1287,0.011272,-0.00031623
3.2175e-05,-0.0029212,-0.00020207,1.1322,0.011302,-0.00028008
3.2254e-05,-0.0029279,-0.00020452,1.1358,0.011332,-0.00024371
3.2332e-05,-0.0029345,-0.00020699,1.1393,0.011362,-0.00020712
3.241e-05,-0.0029411,-0.00020947,1.1428,0.011391,-0.00017032
3.2487e-05,-0.0029475,-0.00021196,1.1463,0.01142,-0.0001333
3.2564e-05,-0.0029539,-0.00021446,1.1497,0.011449,-9.6073e-05
3.264e-05,-0.0029602,-0.00021698,1.1531,0.011478,-5.8635e-05
3.2717e-05,-0.0029665,-0.0002195,1.1565,0.011507,-2.0991e-05
3.2792e-05,-0.0029726,-0.00022204,1.1599,0.011535,1.6857e-05
3.2868e-05,-0.0029787,-0.00022459,1.1633,0.011563,5.4907e-05
3.2942e-05,-0.0029847,-0.00022715,1.1666,0.011591,9.3155e-05
3.3017e-05,-0.0029907,-0.00022972,1.1699,0.011619,0.0001316
3.3091e-05,-0.0029965,-0.0002323,1.1732,0.011646,0.00017024
3.3165e-05,-0.0030023,-0.00023489,1.1765,0.011674,0.00020907
3.3238e-05,-0.0030081,-0.00023749,1.1797,0.011701,0.00024809
3.3312e-05,-0.0030137,-0.00024011,1.1829,0.011728,0.0002873
3.3384e-05,-0.0030193,-0.00024273,1.1861,0.011755,0.0003267
3.3457e-05,-0.0030248,-0.00024537,1.1893,0.011781,0.00036627
3.3529e-05,-0.0030303,-0.00024801,1.1924,0.011808,0.00040603
3.3601e-05,-0.0030357,-0.00025067,1.1956,0.011834,0.00044597
3.3672e-05,-0.003041,-0.00025334,1.1987,0.01186,0.00048608
3.3743e-05,-0.0030462,-0.00025601,1.2018,0.011886,0.00052637
3.3814e-05,-0.0030514,-0.0002587,1.2048,0.011912,0.00056683
3.3885e-05,-0.0030565,-0.0002614,1.2079,0.011938,0.00060746
3.3955e-05,-0.0030616,-0.0002641,1.2109,0.011963,0.00064826
3.4025e-05,-0.0030666,-0.00026682,1.2139,0.011988,0.00068922
3.4095e-05,-0.0030715,-0.00026955,1.2169,0.012014,0.00073035
3.4164e-05,-0.0030764,-0.00027229,1.2199,0.012039,0.00077164
3.4233e-05,-0.0030812,-0.00027503,1.2228,0.012063,0.00081309
3.4302e-05,-0.0030859,-0.00027779,1.2257,0.012088,0.0008547
3.4371e-05,-0.0030906,-0.00028056,1.2286,0.012113,0.00089646
3.4439e-05,-0.0030952,-0.00028333,1.2315,0.012137,0.00093838
3.4508e-05,-0.0030997,-0.00028612,1.2344,0.012161,0.00098045
3.4576e-05,-0.0031042,-0.00028891,1.2372,0.012185,0.0010227
3.4643e-05,-0.0031087,-0.00029171,1.24,0.012209,0.001065
3.4711e-05,-0.003113,-0.00029453,1.2428,0.012233,0.0011076
3.4778e-05,-0.0031173,-0.00029735,1.2456,0.012257,0.0011502
3.4845e-05,-0.0031216,-0.00030018,1.2484,0.01228,0.001193
3.4912e-05,-0.0031258,-0.00030302,1.2511,0.012303,0.001236
3.4979e-05,-0.0031299,-0.00030587,1.2539,0.012327,0.001279
3.5046e-05,-0.003134,-0.00030873,1.2566,0.01235,0.0013223
3.5112e-05,-0.003138,-0.00031159,1.2593,0.012373,0.0013656
3.5178e-05,-0.003142,-0.00031447,1.2619,0.012395,0.0014091
3.5244e-05,-0.0031459,-0.00031735,1.2646,0.012418,0.0014527
3.531e-05,-0.0031497,-0.00032025,1.2672,0.012441,0.0014965
3.5376e-05,-0.0031535,-0.00032315,1.2698,0.012463,0.0015404
3.5442e-05,-0.0031573,-0.00032606,1.2724,0.012485,0.0015844
3.5507e-05,-0.0031609,-0.00032897,1.275,0.012508,0.0016285
3.5572e-05,-0.0031646,-0.0003319,1.2776,0.01253,0.0016728
3.5638e-05,-0.0031682,-0.00033483,1.2801,0.012552,0.0017172
3.5703e-05,-0.0031717,-0.00033777,1.2826,0.012573,0.0017617
3.5768e-05,-0.0031751,-0.00034072,1.2851,0.012595,0.0018063
3.5832e-05,-0.0031786,-0.00034368,1.2876,0.012617,0.001851
3.5897e-05,-0.0031819,-0.00034665,1.2901,0.012638,0.0018959
3.5962e-05,-0.0031852,-0.00034962,1.2926,0.01266,0.0019409
3.6026e-05,-0.0031885,-0.0003526,1.295,0.012681,0.0019859
3.609e-05,-0.0031917,-0.00035559,1.2974,0.012702,0.0020311
3.6155e-05,-0.0031949,-0.00035859,1.2998,0.012723,0.0020764
3.6219e-05,-0.003198,-0.00036159,1.3022,0.012744,0.0021219
3.6283e-05,-0.003201,-0.00036461,1.3046,0.012765,0.0021674
3.6347e-05,-0.0032041,-0.00036762,1.307,0.012785,0.002213
3.6411e-05,-0.003207,-0.00037065,1.3093,0.012806,0.0022587
3.6474e-05,-0.0032099,-0.00037368,1.3116,0.012827,0.0023046
3.6538e-05,-0.0032128,-0.00037673,1.3139,0.012847,0.0023505
3.6602e-05,-0.0032156,-0.00037977,1.3162,0.012867,0.0023966
3.6666e-05,-0.0032184,-0.00038283,1.3185,0.012888,0.0024427
3.6729e-05,-0.0032211,-0.00038589,1.3208,0.012908,0.0024889
3.6793e-05,-0.0032238,-0.00038896,1.323,0.012928,0.0025353
3.6856e-05,-0.0032264,-0.00039203,1.3252,0.012948,0.0025817
3.692e-05,-0.003229,-0.00039512,1.3274,0.012967,0.0026282
3.6983e-05,-0.0032315,-0.00039821,1.3296,0.012987,0.0026748
3.7046e-05,-0.003234,-0.0004013,1.3318,0.013007,0.0027215
3.711e-05,-0.0032365,-0.0004044,1.334,0.013027,0.0027683
3.7173e-05,-0.0032389,-0.00040751,1.3361,0.013046,0.0028152
3.7236e-05,-0.0032412,-0.00041063,1.3383,0.013065,0.0028622
3.7299e-05,-0.0032435,-0.00041375,1.3404,0.013085,0.0029092
3.7363e-05,-0.0032458,-0.00041688,1.3425,0.013104,0.0029564
3.7426e-05,-0.003248,-0.00042001,1.3446,0.013123,0.0030036
3.7489e-05,-0.0032502,-0.00042315,1.3467,0.013142,0.0030509
3.7552e-05,-0.0032523,-0.0004263,1.3487,0.013161,0.0030983
3.7616e-05,-0.0032544,-0.00042945,1.3508,0.01318,0.0031457
3.7679e-05,-0.0032565,-0.00043261,1.3528,0.013199,0.0031933
3.7742e-05,-0.0032585,-0.00043578,1.3549,0.013218,0.0032409
3.7805e-05,-0.0032605,-0.00043895,1.3569,0.013237,0.0032886
3.7868e-05,-0.0032624,-0.00044212,1.3589,0.013255,0.0033364
3.7932e-05,-0.0032643,-0.0004453,1.3608,0.013274,0.0033842
3.7995e-05,-0.0032662,-0.00044849,1.3628,0.013292,0.0034322
3.8058e-05,-0.003268,-0.00045169,1.3648,0.013311,0.0034802
3.8122e-05,-0.0032697,-0.00045488,1.3667,0.013329,0.0035282
3.8185e-05,-0.0032715,-0.00045809,1.3686,0.013348,0.0035764
3.8248e-05,-0.0032732,-0.0004613,1.3705,0.013366,0.0036246
3.8312e-05,-0.0032748,-0.00046451,1.3724,0.013384,0.0036729
3.8375e-05,-0.0032764,-0.00046774,1.3743,0.013402,0.0037212
3.8439e-05,-0.003278,-0.00047096,1.3762,0.01342,0.0037696
3.8502e-05,-0.0032796,-0.00047419,1.378,0.013438,0.0038181
3.8566e-05,-0.0032811,-0.00047743,1.3799,0.013456,0.0038666
3.8629e-05,-0.0032825,-0.00048067,1.3817,0.013474,0.0039152
3.8693e-05,-0.0032839,-0.00048392,1.3835,0.013492,0.0039639
3.8757e-05,-0.0032853,-0.00048717,1.3853,0.01351,0.0040126
3.8821e-05,-0.0032867,-0.00049043,1.3871,0.013527,0.0040614
3.8885e-05,-0.003288,-0.00049369,1.3889,0.013545,0.0041102
3.8949e-05,-0.0032893,-0.00049695,1.3907,0.013563,0.0041591
3.9013e-05,-0.0032905,-0.00050022,1.3924,0.01358,0.0042081
3.9077e-05,-0.0032917,-0.0005035,1.3942,0.013598,0.0042571
3.9141e-05,-0.0032929,-0.00050678,1.3959,0.013615,0.0043062
3.9205e-05,-0.0032941,-0.00051007,1.3976,0.013633,0.0043553
3.9269e-05,-0.0032952,-0.00051336,1.3994,0.01365,0.0044045
3.9334e-05,-0.0032962,-0.00051665,1.401,0.013667,0.0044537
3.9398e-05,-0.0032973,-0.00051995,1.4027,0.013684,0.004503
3.9463e-05,-0.0032983,-0.00052325,1.4044,0.013702,0.0045524
3.9528e-05,-0.0032993,-0.00052656,1.4061,0.013719,0.0046018
3.9592e-05,-0.0033002,-0.00052987,1.4077,0.013736,0.0046512
3.9657e-05,-0.0033011,-0.00053319,1.4094,0.013753,0.0047007
3.9722e-05,-0.003302,-0.00053651,1.411,0.01377,0.0047502
3.9787e-05,-0.0033028,-0.00053983,1.4126,0.013787,0.0047998
3.9852e-05,-0.0033036,-0.00054316,1.4142,0.013804,0.0048494
3.9918e-05,-0.0033044,-0.00054649,1.4158,0.013821,0.0048991
3.9983e-05,-0.0033051,-0.00054983,1.4174,0.013838,0.0049488
4.0049e-05,-0.0033059,-0.00055317,1.4189,0.013855,0.0049986
4.0114e-05,-0.0033065,-0.00055651,1.4205,0.013872,0.0050484
4.018e-05,-0.0033072,-0.00055986,1.4221,0.013888,0.0050983
4.0246e-05,-0.0033078,-0.00056321,1.4236,0.013905,0.0051482
4.0312e-05,-0.0033084,-0.00056657,1.4251,0.013922,0.0051981
4.0378e-05,-0.003309,-0.00056993,1.4266,0.013939,0.0052481
4.0444e-05,-0.0033095,-0.00057329,1.4281,0.013955,0.0052981
4.051e-05,-0.00331,-0.00057666,1.4296,0.013972,0.0053481
4.0577e-05,-0.0033105,-0.00058003,1.4311,0.013989,0.0053982
4.0643e-05,-0.0033109,-0.0005834,1.4326,0.014005,0.0054484
4.071e-05,-0.0033113,-0.00058678,1.4341,0.014022,0.0054985
4.0777e-05,-0.0033117,-0.00059016,1.4355,0.014038,0.0055487
4.0844e-05,-0.0033121,-0.00059354,1.437,0.014055,0.005599
4.0911e-05,-0.0033124,-0.00059693,1.4384,0.014071,0.0056493
4.0978e-05,-0.0033127,-0.00060032,1.4398,0.014088,0.0056996
4.1046e-05,-0.003313,-0.00060371,1.4412,0.014104,0.0057499
4.1113e-05,-0.0033132,-0.00060711,1.4426,0.01412,0.0058003
4.1181e-05,-0.0033135,-0.00061051,1.444,0.014137,0.0058507
4.1249e-05,-0.0033136,-0.00061392,1.4454,0.014153,0.0059011
4.1317e-05,-0.0033138,-0.00061732,1.4468,0.01417,0.0059516
4.1385e-05,-0.0033139,-0.00062073,1.4481,0.014186,0.0060021
4.1454e-05,-0.0033141,-0.00062414,1.4495,0.014202,0.0060526
4.1522e-05,-0.0033141,-0.00062756,1.4508,0.014218,0.0061032
4.1591e-05,-0.0033142,-0.00063098,1.4522,0.014235,0.0061538
4.166e-05,-0.0033142,-0.0006344,1.4535,0.014251,0.0062044
4.1729e-05,-0.0033143,-0.00063782,1.4548,0.014267,0.006255
4.1798e-05,-0.0033142,-0.00064125,1.4561,0.014283,0.0063057
